0  34 0  0.57 110.4
0  35 0  0.57 110.1
0  36 0  0.57 109.5
0  42 0  1.1 114.0
0  42 42 1.1 121.5
0  0  56 0.98 108.5
0  35 56 0.98 109.5
0  40 56 0.98 112.0
0  40 57 0.98 125.7
58 33 0  0.40 109.5
58 34 0  0.40 109.0
58 35 0  0.40 109.2
58 42 0  0.65 119.0
0  56 0  0.6 110.0
58 0  56 0.50 109.5
58 56 0  0.76 108.0
33 41 33 1.1 117.2
34 41 34 1.1 117.2
35 41 35 1.1 117.2
36 41 36 1.1 117.2
33 41 38 1.1 120.0
38 41 38 1.1 120.0
42 41 42 1.1 117.2
38 38 41 0.55 120.0
33 38 38 0.55 120.0
34 38 38 0.55 120.0
35 38 38 0.55 120.0
36 38 38 0.55 120.0
42 38 38 0.55 120.0
39 38 38 0.55 120.0
38 38 38 0.55 120.0
34 34 48 0.57 105.2
35 34 48 0.57 105.2
33 35 48 0.57 105.2
35 35 48 0.57 105.2
33 39 50 0.98 114.6
34 39 50 0.98 114.6
35 39 50 0.98 114.6
36 39 50 0.98 114.6
38 39 50 0.98 114.6
38 38 46 0.55 120.0
38 38 54 0.55 120.0
38 38 50 0.55 120.0
38 38 51 0.55 120.0
42 38 49 0.55 120.0
38 38 49 0.55 120.0  
34 42 56 0.98 108.5
38 38 56 0.65 120.0
42 42 56 1.1 117.0
33 41 57 0.65 122.0
34 41 57 0.65 122.0
35 41 57 0.65 122.0
36 41 57 0.65 122.0
38 41 57 0.65 120.0
42 41 57 0.65 122.0
33 39 57 0.98 123.5
34 39 57 0.98 123.5
35 39 57 0.98 123.5
36 39 57 0.98 123.5
38 39 57 0.98 123.5
34 43 57 0.98 117.0
35 43 57 0.98 117.0
50 39 57 0.98 123.6
46 42 51 1.1 113.2
51 38 49 0.55 120.0
49 38 49 0.55 128.1
56 35 56 0.57 109.5
56 41 57 0.98 122.3
57 43 57 0.98 126.0
38 46 38 1.3 112.0
38 46 42 1.1 111.0
33 50 39 0.8 117.5
34 50 39 0.8 119.0
35 50 39 0.8 117.5
38 50 39 0.8 120.0
58 33 58 0.33 109.2
58 34 58 0.33 109.1
58 41 58 1.1 116.5
58 42 58 0.65 118.0
58 42 33 1.1 117.5
58 42 42 1.1 116.5
58 38 38 0.55 120.0
58 42 42 0.65 121.0
58 37 37 0.24 180.0
58 46 38 1.3 124.0
58 50 33 0.8 120.0
58 50 34 0.8 120.0
58 50 38 0.8 120.0
58 50 39 0.8 120.0
33 50 38 0.8 120.0
38 50 38 0.8 120.0
38 51 42 1.0 105.4
38 49 38 0.55 109.7
33 53 57 0.98 110.0
33 54 57 0.65 117.4
38 54 57 0.65 117.4
57 54 57 1.52 125.3
35 56 35 1.0 108.0
35 56 34 1.0 108.0
38 56 38 1.3 114.2
33 56 40 0.6 107.0
34 56 40 0.6 107.0
35 56 40 0.6 107.0
58 40 50 0.98 112.7
58 37 42 0.24 180.0
58 38 46 0.55 116.0
58 42 51 0.65 138.2
58 38 49 0.55 120.0
58 42 46 1.1 108.6
58 41 57 0.65 121.7
58 40 56 0.50 109.5
58 40 57 0.65 124.8
58 39 57 0.98 122.4
58 38 56 0.55 106.0
58 50 58 0.8 120.0
58 46 42 0.8 125.0
58 56 58 0.69 105.0
58 56 40 0.76 103.3
58 56 56 0.5 93.2